980,1037,1037,1037,1037,979,979,979,905,905,905,905,931,931,931,975,975,975,975,915,915,915,862,862,862,862,908,908,908,967,967,967,967,922,922,922,871,871,871,871,924,924,924,980,980,980,980,923,923,923,865,865,865,865,921,921,921,994,994,994,994,994,994,994,994,1046,1046,1046,1205,1205,1205,1205,1353,1353,1353,1422,1422,1422,1422,1539,1539,1539,1652,1652,1652,1652,1601,1601,1601,1359,1359,1359,1359,996,996,996,815,815,815,815,816,816,816,788,788,788,788,885,885,885,1108,1108,1108,1108,1219,1219,1219,1176,1176,1176,1176,1096,1096,1096,1076,1076,1076,1076,1063,1063,1063,984,984,984,984,939,939,939,983,983,983,983,1013,1013,1013,954,954,954,954,937,937,1001,1001,1001,1028,1028,1028,1028,970,970,970,970,957,957,957,1023,1023,1023,1023,1049,1049,1049,995,995,995,995,987,987,987,1054,1054,1054,1054,1072,1072,1072,1072,1018,1018,1018,1016,1016,1016,1016,1088,1088,1088,1110,1110,1110,1110,1057,1057,1057,1056,1056,1056,1056,1131,1131,1131,1145,1145,1145,1145,1099,1099,1099,1105,1105,1105,1105,1186,1186,1186,1195,1195,1195,1195,1154,1154,1154,1168,1168,1168,1168,1249,1249,1249,1249,1259,1259,1259,1217,1217,1217,1217,1231,1231,1231,1309,1309,1309,1309,1308,1308,1308,1257,1257,1257,1257,1271,1271,1271,1335,1335,1335,1335,1320,1320,1320,1257,1257,1257,1257,1259,1259,1259,1315,1315,1315,1315,1282,1282,1282,1206,1206,1206,1206,1198,1198,1198,1198,1236,1236,1236,1189,1189,1189,1189,1095,1095,1095,1083,1083,1083,1083,1116,1116,1116,1050,1050,1050,1050,964,964,964,958,958,958,958,1004,1004,1004,952,952,952,952,870,870,870,882,882,882,882,932,932,932,887,887,887,887,813,813,813,842,842,842,842,896,896,896,855,855,855,855,790,790,790,825,825,825,825,888,888,888,845,845,845,845,791,791,791,827,827,827,827,894,894,894,848,848,848,848,793,793,793,839,839,839,839,896,896,896,855,855,855,855,796,796,796,846,846,846,846,910,910,910,910,865,865,865,819,819,819,819,868,868,868,926,926,926,926,874,874,874,828,828,828,828,880,880,880,940,940,940,940,890,890,890,843,843,843,843,891,891,891,943,943,943,943,886,886,886,842,842,842,842,892,892,892,940,940,940,940,884,884,884,833,833,833,833,891,891,891,891,931,931,876,876,876,876,839,839,839,892,892,892,892,934,934,934,934,873,873,873,834,834,834,834,888,888,888,923,923,923,923,861,861,861,833,833,833,833,885,885,885,922,922,922,922,861,861,861,835,835,835,835,891,891,891,922,922,922,922,862,862,844,844,844,908,908,908,908,939,939,939,882,882,882,882,869,869,869,931,931,931,931,956,956,956,909,909,909,909,902,902,902,976,976,976,976,984,984,984,984,918,918,918,906,906,906,906,974,974,974,985,985,985,985,938,938,938,927,927,927,927,985,985,985,972,972,972,972,893,893,893,867,867,867,867,920,920,920,907,907,907,907,840,840,840,842,842,842,842,906,906,906,898,898,898,898,840,840,840,847,847,847,847,916,916,916,900,900,900,900,836,836,836,848,848,848,848,917,917,917,893,893,893,893,833,833,833,833,864,864,864,973,973,973,973,1023,1023,1023,1061,1061,1061,1061,1172,1172,1172,1334,1334,1334,1334,1426,1426,1426,1519,1519,1519,1519,1521,1521,1521,1465,1465,1465,1465,1168,1168,1168,754,754,754,754,639,639,639,637,637,637,637,732,732,732,732,837,837,837,1022,1022,1022,1022,1178,1178,1178,1179,1179,1179,1179,1101,1101,1101,1079,1079,1079,1079,1084,1084,1084,1005,1005,1005,1005,934,934,934,954,954,954,954,1024,1024,1024,974,974,974,974,915,915,915,958,958,958,958,1019,1019,1019,1019,982,982,982,923,923,923,923,973,973,973,1037,1037,1037,1037,996,996,996,946,946,946,946,1001,1001,1001,1072,1072,1072,1072,1028,1028,1028,987,987,987,987,1040,1040,1040,1040,1104,1104,1104,1068,1068,1068,1068,1028,1028,1028,1095,1095,1095,1095,1158,1158,1158,1126,1126,1126,1126,1094,1094,1094,1164,1164,1164,1164,1230,1230,1230,1204,1204,1204,1204,1174,1174,1174,1251,1251,1251,1251,1306,1306,1306,1274,1274,1274,1274,1240,1240,1240,1240,1303,1303,1303,1349,1349,1349,1349,1308,1308,1308,1264,1264,1264,1264,1318,1318,1318,1341,1341,1341,1341,1285,1285,1285,1237,1237,1237,1237,1277,1277,1277,1283,1283,1283,1283,1203,1203,1203,1127,1127,1127,1127,1144,1144,1144,1144,1133,1133,1133,1037,1037,1037,1037,970,970,970,990,990,990,979,979,890,890,890,890,849,849,849,849,890,890,890,895,895,895,895,817,817,817,789,789,789,789,836,836,836,842,842,842,842,772,772,772,749,749,749,749,805,805,805,817,817,817,817,754,754,754,744,744,744,744,802,802,802,809,809,809,809,748,748,748,749,749,749,749,814,814,814,814,813,813,813,758,758,758,758,763,763,763,829,829,829,829,830,830,830,770,770,770,770,776,776,776,847,847,847,847,836,836,836,779,779,779,779,790,790,790,861,861,861,861,850,850,850,789,789,789,789,808,808,808,875,875,875,875,861,861,861,861,797,797,797,815,815,815,815,882,882,882,853,853,853,853,794,794,794,810,810,810,810,878,878,878,850,850,850,850,788,788,788,813,813,813,813,879,879,879,879,841,841,841,781,781,781,781,813,813,813,878,878,878,844,844,844,844,783,783,783,815,815,815,815,879,879,879,844,844,844,844,782,782,782,820,820,820,820,883,883,883,847,847,847,847,784,784,784,825,825,825,825,883,883,883,837,837,837,837,781,781,781,829,829,829,829,895,895,895,895,857,857,857,803,803,803,803,844,844,844,905,905,905,905,850,850,850,804,804,804,804,838,838,838,904,904,904,904,852,852,852,804,804,804,804,858,858,858,912,912,912,912,858,858,858,813,813,813,813,857,857,857,857,920,920,920,867,867,867,867,826,826,826,874,874,874,874,923,923,923,865,865,865,865,816,816,816,878,878,878,878,923,923,923,873,873,873,873,831,831,831,891,891,891,891,930,930,930,873,873,873,873,845,845,845,845,897,897,897,943,943,943,943,882,882,882,850,850,850,850,913,913,913,943,943,943,943,889,889,889,863,863,863,863,927,927,927,961,961,961,961,893,893,893,871,871,871,928,928,928,955,955,955,896,896,896,896,884,884,884,955,955,955,955,985,985,985,928,928,928,928,919,919,919,919,988,988,988,1001,1001,1001,1001,943,943,943,932,932,932,932,1005,1005,1005,1018,1018,1018,1018,971,971,971,969,969,969,969,1037,1037,1037,1041,1041,1041,1041,981,981,981,977,977,977,977,1040,1040,1040,1029,1029,1029,1029,957,957,957,957,942,942,942,987,987,987,987,968,968,968,889,889,889,889,901,901,901,969,969,969,969,963,963,963,897,897,897,897,915,915,915,975,975,975,975,961,961,961,895,895,895,895,908,908,908,984,984,984,984,999,999,999,1002,1002,1002,1002,1139,1139,1139,1139,1291,1291,1291,1374,1374,1374,1374,1438,1438,1438,1603,1603,1603,1603,1665,1665,1665,1520,1520,1520,1520,1218,1218,1218,942,942,942,942,823,823,823,784,784,784,784,772,772,772,955,955,955,955,1156,1156,1156,1156,1196,1196,1196,1143,1143,1143,1135,1135,1135,1135,1128,1128,1128,1044,1044,1044,1044,963,963,963,963,989,989,989,1047,1047,1047,1047,1001,1001,1001,945,945,945,945,987,987,987,1052,1052,1052,1052,1011,1011,1011,956,956,956,956,1006,1006,1006,1072,1072,1072,1072,1026,1026,1026,977,977,977,977,1026,1026,1026,1026,1094,1094,1094,1045,1045,1045,1045,1002,1002,1002,1052,1052,1052,1116,1116,1116,1116,1079,1079,1079,1026,1026,1026,1026,1092,1092,1092,1149,1149,1149,1149,1109,1109,1109,1109,1071,1071,1071,1131,1131,1131,1131,1196,1196,1196,1156,1156,1156,1156,1127,1127,1127,1190,1190,1190,1190,1249,1249,1249,1219,1219,1219,1219,1181,1181,1181,1249,1249,1249,1249,1299,1299,1299,1258,1258,1258,1258,1223,1223,1223,1278,1278,1278,1278,1310,1310,1310,1262,1262,1262,1262,1216,1216,1216,1266,1266,1266,1266,1292,1292,1292,1222,1222,1222,1222,1174,1174,1174,1174,1209,1209,1209,1215,1215,1215,1215,1135,1135,1135,1073,1073,1073,1102,1102,1102,1102,1099,1099,1099,1099,1009,1009,961,961,961,992,992,992,992,993,993,993,912,912,912,912,873,873,873,925,925,925,925,930,930,930,863,863,863,863,840,840,840,840,894,894,894,895,895,895,895,829,829,829,815,815,815,815,880,880,880,880,880,880,880,820,820,820,808,808,808,808,874,874,874,871,871,871,871,815,815,815,812,812,812,812,878,878,878,878,881,881,881,819,819,819,819,828,828,828,894,894,894,894,888,888,888,832,832,832,832,842,842,842,911,911,911,911,898,898,898,843,843,843,843,859,859,859,930,930,930,930,904,904,904,844,844,858,858,858,858,927,927,927,910,910,910,910,853,853,853,868,868,868,868,939,939,939,939,904,904,904,847,847,847,872,872,872,937,937,937,908,908,908,845,845,845,845,870,870,870,939,939,895,895,895,895,842,842,842,866,866,866,866,929,929,929,929,888,888,888,836,836,836,836,865,865,865,939,939,939,939,895,895,895,837,837,837,837,873,873,873,935,935,935,935,885,885,885,829,829,829,829,867,867,867,867,937,937,937,887,887,887,887,831,831,831,874,874,874,874,941,941,941,894,894,894,894,840,840,840,883,883,883,883,942,942,942,889,889,889,889,837,837,837,883,883,883,883,939,939,939,892,892,892,892,834,834,834,894,894,894,894,943,943,943,890,890,890,890,843,843,843,892,892,892,892,950,950,950,950,894,894,894,856,856,856,856,909,909,909,958,958,958,958,901,901,901,861,861,861,861,917,917,917,958,958,958,958,901,901,901,860,860,860,860,911,911,952,952,903,903,903,875,875,875,875,942,942,987,987,987,933,933,915,915,915,978,978,978,1010,1010,1010,949,949,949,949,925,925,925,993,993,993,993,1025,1025,1025,1025,971,971,971,954,954,954,954,1016,1016,1016,1046,1046,981,981,981,981,966,966,966,1026,1026,1026,1032,1032,1032,1032,965,965,965,941,941,941,941,984,984,984,983,983,983,983,905,905,905,905,895,895,895,962,962,962,962,962,962,962,901,901,901,901,895,895,895,959,959,959,959,962,962,962,902,902,902,902,899,899,899,970,970,970,970,969,969,969,956,956,956,956,1044,1044,1044,1044,1224,1224,1224,1304,1304,1304,1361,1361,1361,1497,1497,1497,1497,1653,1653,1653,1653,1596,1596,1596,1369,1369,1369,1369,1100,1100,1100,932,932,932,932,811,811,811,791,791,791,791,873,873,873,1116,1116,1116,1185,1185,1185,1151,1151,1151,1129,1129,1129,1118,1118,1118,1034,1034,1034,942,942,942,959,959,959,1022,1022,928,954,954,954,1025,1025,1025,995,995,995,938,938,976,976,976,1047,1047,1047,1007,1007,956,956,996,996,1067,1067,1067,1037,1037,982,982,982,1027,1027,1094,1011,1011,1011,1068,1068,1068,1068,1134,1134,1101,1101,1101,1101,1049,1049,1049,1104,1104,1104,1104,1175,1175,1175,1140,1140,1140,1140,1099,1099,1099,1165,1165,1165,1165,1238,1238,1238,1213,1213,1213,1213,1172,1172,1172,1172,1236,1236,1236,1293,1293,1293,1293,1259,1259,1259,1214,1214,1214,1214,1267,1267,1267,1314,1314,1314,1314,1267,1267,1267,1206,1206,1206,1206,1253,1253,1253,1253,1291,1291,1291,1226,1226,1226,1226,1171,1171,1171,1200,1200,1200,1200,1220,1220,1220,1144,1144,1144,1144,1064,1064,1064,1088,1088,1088,1088,1089,1089,1089,1001,1001,1001,1001,935,935,935,935,963,963,963,976,976,976,976,900,900,900,850,850,850,850,890,890,890,910,910,910,910,842,842,842,805,805,805,805,853,853,853,878,878,878,878,808,808,808,781,781,781,781,837,837,837,860,860,860,860,791,791,791,773,773,773,773,830,830,830,830,851,851,851,790,790,790,790,779,779,779,840,840,840,840,860,860,860,802,802,802,802,787,787,787,850,850,850,850,863,863,804,804,804,808,808,808,808,869,869,869,882,882,882,882,813,813,813,821,821,821,821,881,881,881,887,887,887,887,823,823,823,827,827,827,827,892,892,892,892,883,883,883,819,819,819,819,828,828,828,890,890,890,890,889,889,889,822,822,822,822,837,837,837,898,898,898,898,881,881,881,818,818,818,818,834,834,834,900,900,900,900,879,879,879,879,816,816,816,834,834,834,834,903,903,903,872,872,872,872,814,838,838,838,838,904,904,904,874,874,874,874,813,813,813,843,843,843,843,908,908,908,883,883,883,883,818,818,818,854,854,854,854,919,919,919,882,882,882,882,821,821,821,855,855,855,855,924,924,924,924,883,883,883,824,824,824,824,860,860,860,923,923,923,923,883,883,883,828,828,828,828,869,869,869,934,934,934,934,888,888,888,828,828,828,828,876,876,876,936,936,936,936,889,889,889,889,839,839,839,883,883,883,883,942,942,942,894,894,894,894,842,842,842,891,891,891,891,947,947,947,898,898,898,898,844,844,844,893,893,893,893,949,949,949,897,897,897,897,853,853,853,853,907,907,907,959,959,959,959,905,905,905,856,856,856,856,910,910,910,955,955,955,955,904,904,904,864,864,864,864,921,921,921,967,967,967,967,913,913,913,877,877,877,877,945,945,945,1001,1001,1001,1001,936,936,936,916,916,916,916,960,960,960,960,1007,1007,1007,948,948,948,948,928,928,928,998,998,998,998,1033,1033,1033,976,976,976,976,952,952,952,1019,1019,1019,1019,1052,1052,1052,992,992,992,992,966,966,966,1019,1019,1019,1019,1034,1034,1034,954,954,954,954,915,915,915,964,964,964,964,967,967,967,905,905,905,905,893,893,893,893,955,955,955,970,970,970,970,906,906,906,902,902,902,902,959,902,902,902,904,904,904,904,976,976,976,1020,1020,1020,1020,1029,1029,1029,1144,1144,1144,1144,1293,1293,1293,1398,1398,1398,1398,1473,1473,1473,1592,1592,1592,1592,1634,1634,1634,1454,1454,1454,1454,1161,1161,1161,907,907,907,907,843,843,843,864,864,864,864,846,846,846,846,1033,1033,1033,1206,1206,1206,1206,1224,1224,1224,1134,1134,1134,1134,1078,1078,1078,1075,1075,1075,1075,1023,1023,1023,952,952,952,952,963,963,963,1036,1036,1036,1036,1009,1009,1009,947,947,947,947,979,979,979,979,1045,1045,1045,1019,1019,1019,1019,959,959,959,989,989,989,989,1059,1059,1059,1035,1035,1035,1035,974,974,974,1014,1014,1014,1014,1086,1086,1086,1060,1060,1060,1060,1003,1003,1003,1054,1054,1054,1054,1115,1115,1115,1115,1092,1092,1092,1033,1033,1033,1033,1080,1080,1080,1152,1152,1152,1152,1123,1123,1123,1075,1075,1075,1075,1131,1131,1131,1201,1201,1201,1201,1174,1174,1174,1134,1134,1134,1134,1200,1200,1200,1269,1269,1269,1269,1251,1251,1251,1209,1209,1209,1266,1266,1266,1266,1334,1334,1334,1295,1295,1295,1295,1246,1246,1246,1295,1295,1295,1295,1346,1346,1346,1298,1298,1298,1298,1248,1248,1248,1248,1282,1282,1282,1323,1323,1323,1323,1255,1255,1255,1188,1188,1188,1188,1207,1207,1207,1229,1229,1229,1229,1150,1150,1150,1071,1071,1071,1071,1091,1091,1091,1098,1098,1098,1098,1015,1015,1015,944,944,944,944,973,973,973,990,990,990,990,915,915,915,915,855,855,855,895,895,895,895,924,924,924,853,853,853,821,821,821,821,865,865,865,904,904,904,904,830,830,830,804,804,804,804,852,852,852,883,883,883,883,822,822,822,797,797,797,797,857,857,857,857,885,885,885,816,816,816,816,800,800,800,851,851,851,851,878,878,878,819,819,819,819,807,807,807,877,877,877,877,894,894,894,835,835,835,835,826,826,826,826,888,888,888,900,900,900,900,839,839,839,831,831,831,831,894,894,901,901,901,838,838,838,838,842,842,842,906,906,906,906,907,907,907,842,842,842,842,848,848,848,913,913,913,913,908,908,908,836,836,836,836,843,843,843,843,911,911,911,902,902,902,902,843,843,843,849,849,849,849,914,914,914,896,896,896,896,834,834,834,851,851,851,851,916,916,916,898,898,898,898,832,832,832,854,854,854,854,921,921,921,897,897,897,897,831,831,831,851,851,851,851,919,919,919,882,882,882,882,828,828,828,828,853,853,853,923,923,923,923,892,892,892,830,830,830,830,859,859,859,930,930,930,930,890,890,890,832,832,832,832,864,864,864,929,929,929,929,892,892,892,830,830,830,830,864,864,864,864,929,929,929,888,888,888,888,834,834,834,871,871,871,871,935,935,935,891,891,891,891,838,838,838,883,883,883,883,945,945,945,897,897,897,897,843,843,843,892,892,892,892,953,953,953,953,904,904,904,850,850,850,850,897,897,897,954,954,954,954,907,907,907,850,850,850,850,904,904,904,960,960,960,960,910,910,910,862,862,862,862,908,908,908,964,964,964,964,908,908,908,869,869,869,869,930,930,930,930,991,991,991,942,942,942,942,910,910,910,964,964,964,964,1012,1012,1012,952,952,952,952,919,919,919,986,986,986,986,1037,1037,1037,988,988,988,988,953,953,953,1014,1014,1014,1014,1052,1052,1052,1052,991,991,991,961,961,961,961,1022,1022,1022,1047,1047,1047,1047,983,983,983,937,937,937,937,976,976,976,989,989,989,917,917,917,917,893,893,893,962,962,962,962,985,985,985,985,924,924,924,901,901,901,901,966,966,966,980,980,980,980,922,922,922,900,900,900,900,968,968,968,991,991,991,991,971,971,971,1038,1038,1038,1038,1218,1218,1218,1322,1322,1322,1322,1384,1384,1384,1512,1512,1706,1706,1706,1706,1673,1673,1673,1505,1505,1505,1505,1193,1193,1193,986,986,986,986,823,823,823,823,767,767,767,838,838,838,838,1058,1058,1058,1172,1172,1172,1172,1176,1176,1176,1174,1174,1174,1174,1195,1195,1195,1113,1113,1113,1113,1004,1004,1004,998,998,998,998,1049,1049,1049,1023,1023,1023,1023,960,960,960,976,976,976,976,1043,1043,1043,1021,1021,1021,1021,964,964,964,979,979,979,979,1058,1058,1058,1058,1034,1034,1034,982,982,982,982,1011,1011,1011,1081,1081,1081,1081,1059,1059,1059,1007,1007,1007,1007,1044,1044,1044,1118,1118,1118,1118,1086,1086,1086,1033,1033,1033,1033,1071,1071,1071,1151,1151,1151,1151,1124,1124,1124,1124,1080,1080,1080,1123,1123,1123,1123,1205,1205,1205,1183,1183,1183,1183,1140,1140,1140,1197,1197,1197,1197,1274,1274,1274,1253,1253,1253,1253,1213,1213,1213,1266,1266,1266,1266,1342,1342,1342,1319,1319,1319,1319,1268,1268,1268,1314,1314,1314,1314,1371,1371,1371,1328,1328,1328,1328,1273,1273,1273,1306,1306,1306,1306,1354,1354,1354,1354,1296,1296,1296,1227,1227,1227,1227,1250,1250,1250,1278,1278,1278,1278,1197,1197,1197,1113,1113,1113,1113,1118,1118,1118,1134,1134,1134,1134,1045,1045,1045,957,957,957,957,976,976,976,998,998,998,998,915,915,915,915,846,846,846,881,881,881,881,905,905,905,841,841,841,841,787,787,787,832,832,832,832,864,864,864,801,801,801,801,758,758,758,808,808,808,808,843,843,843,779,779,779,779,747,747,747,802,802,802,802,833,833,833,833,776,776,776,741,741,741,741,803,803,803,837,837,837,837,781,781,781,760,760,760,760,819,819,819,847,847,847,847,788,788,788,768,768,768,768,831,831,831,853,853,853,853,799,799,799,786,786,786,786,852,852,852,869,869,869,869,809,809,809,796,796,796,796,861,861,861,861,875,875,875,807,807,807,807,803,803,803,866,866,866,866,873,873,873,808,808,805,805,805,805,867,867,867,870,870,870,870,805,805,805,804,804,804,804,866,866,866,860,860,860,860,791,791,791,793,793,793,793,859,859,859,849,849,849,849,789,789,789,804,804,804,804,876,876,876,870,870,870,870,815,815,815,831,831,831,831,897,897,897,884,884,884,884,822,822,822,854,854,854,854,928,928,928,908,908,908,908,850,850,850,862,862,862,862,935,935,935,904,904,904,904,846,846,846,883,883,883,883,950,950,950,950,915,915,915,838
